         TOF        Yobs    sYobs        Ycal     YcalBad
    11004.69    21498.00    01245    20691.00    19380.00
    11010.19    21078.00    01232    20413.00    19370.00
    11015.70    19953.00    01204    20192.00    19360.00
    11021.20    20706.00    01229    20017.00    19350.00
    11026.70    20897.00    01232    19879.00    19350.00
    11032.23    18916.00    01177    19770.00    19350.00
    11037.75    19642.00    01202    19683.00    19350.00
    11043.27    18948.00    01184    19616.00    19350.00
    11048.78    20209.00    01221    19563.00    19350.00
    11054.31    19475.00    01199    19521.00    19350.00
    11059.84    19071.00    01192    19489.00    19350.00
    11065.37    17076.00    01134    19464.00    19350.00
    11070.89    17349.00    01147    19446.00    19350.00
    11076.42    18526.00    01179    19431.00    19350.00
    11081.96    20968.00    01248    19421.00    19360.00
    11087.51    18687.00    01187    19413.00    19360.00
    11093.05    17286.00    01148    19408.00    19360.00
    11098.59    19259.00    01206    19405.00    19370.00
    11104.15    18062.00    01170    19403.00    19370.00
    11109.71    19001.00    01202    19403.00    19380.00
    11115.26    19767.00    01225    19403.00    19380.00
    11120.82    19576.00    01218    19404.00    19390.00
    11126.37    20343.00    01244    19406.00    19390.00
    11131.93    20433.00    01245    19408.00    19400.00
    11137.51    16638.00    01138    19411.00    19400.00
    11143.08    17035.00    01152    19404.00    19400.00
    11148.65    17851.00    01177    19409.00    19410.00
    11154.23    19718.00    01232    19413.00    19410.00
    11159.80    18778.00    01207    19417.00    19420.00
    11165.38    19111.00    01218    19422.00    19420.00
    11170.95    19114.00    01220    19426.00    19430.00
    11176.54    18949.00    01214    19431.00    19430.00
    11182.13    19890.00    01245    19435.00    19430.00
    11187.72    17930.00    01188    19439.00    19440.00
    11193.32    19323.00    01229    19444.00    19440.00
    11198.91    18789.00    01219    19448.00    19450.00
    11204.50    19441.00    01236    19453.00    19450.00
    11210.11    17857.00    01192    19457.00    19460.00
    11215.71    19655.00    01246    19461.00    19460.00
    11221.33    20088.00    01256    19466.00    19470.00
    11226.95    18075.00    01203    19470.00    19470.00
    11232.56    17662.00    01193    19475.00    19470.00
    11238.18    18700.00    01222    19479.00    19480.00
    11243.80    18369.00    01217    19483.00    19480.00
    11249.42    20349.00    01272    19488.00    19490.00
    11255.04    19863.00    01263    19492.00    19490.00
    11260.66    19759.00    01259    19497.00    19500.00
    11266.29    18684.00    01230    19501.00    19500.00
    11271.93    17495.00    01196    19505.00    19510.00
    11277.56    18710.00    01234    19510.00    19510.00
    11283.20    18543.00    01230    19514.00    19510.00
    11288.83    17945.00    01215    19519.00    19520.00
    11294.48    18359.00    01225    19523.00    19520.00
    11300.13    18854.00    01245    19527.00    19530.00
    11305.78    20984.00    01303    19532.00    19530.00
    11311.44    18486.00    01237    19536.00    19540.00
    11317.09    17820.00    01216    19541.00    19540.00
    11322.75    18896.00    01249    19545.00    19550.00
    11328.42    19433.00    01267    19550.00    19550.00
    11334.08    19059.00    01258    19554.00    19590.00
    11339.75    18977.00    01257    19558.00    19600.00
    11345.42    19514.00    01274    19563.00    19610.00
    11351.08    18793.00    01255    19567.00    19620.00
    11356.76    17420.00    01212    19572.00    19630.00
    11362.44    18733.00    01257    19576.00    19630.00
    11368.13    18960.00    01262    19580.00    19640.00
    11373.81    19637.00    01287    19585.00    19660.00
    11379.49    19052.00    01268    19589.00    19670.00
    11385.19    19700.00    01288    19593.00    19680.00
    11390.88    18925.00    01268    19598.00    19700.00
    11396.58    20825.00    01324    19602.00    19730.00
    11402.27    20613.00    01320    19607.00    19760.00
    11407.97    20690.00    01324    19659.00    19820.00
    11413.67    21019.00    01335    19667.00    19940.00
    11419.38    20032.00    01305    19676.00    20180.00
    11425.09    18727.00    01272    19685.00    20690.00
    11430.80    18636.00    01268    19695.00    21760.00
    11436.52    19184.00    01289    19705.00    23890.00
    11442.23    20493.00    01326    19717.00    27790.00
    11447.95    19905.00    01311    19729.00    34300.00
    11453.68    20311.00    01324    19744.00    43990.00
    11459.41    20628.00    01335    19760.00    56610.00
    11465.14    20451.00    01332    19779.00    70760.00
    11470.86    19380.00    01303    19804.00    83930.00
    11476.61    19752.00    01312    19839.00    93370.00
    11482.35    20393.00    01336    19895.00    97120.00
    11488.09    20810.00    01346    19998.00    94920.00
    11493.83    22372.00    01396    20204.00    88080.00
    11499.58    24130.00    01442    20636.00    78670.00
    11505.33    24029.00    01441    21545.00    68610.00
    11511.08    25249.00    01480    23365.00    59480.00
    11516.82    30586.00    01612    26777.00    51490.00
    11522.59    37221.00    01763    32659.00    44910.00
    11528.37    45329.00    01942    41726.00    39650.00
    11534.12    55530.00    02141    54038.00    35500.00
    11539.88    69157.00    02382    68584.00    32240.00
    11545.65    83293.00    02602    83147.00    29680.00
    11551.43    85529.00    02646    94771.00    27680.00
    11557.20    94806.00    02779   101007.00    26120.00
    11562.99    94305.00    02775   100914.00    24920.00
    11568.76    92994.00    02767    95310.00    24000.00
    11574.54    86563.00    02669    86159.00    23320.00
    11580.32    75851.00    02506    75821.00    22870.00
    11586.11    66474.00    02355    65554.00    22690.00
    11591.92    61923.00    02273    56480.00    22910.00
    11597.72    51905.00    02098    48932.00    23890.00
    11603.51    47511.00    02015    42868.00    26390.00
    11609.31    41764.00    01894    38051.00    31960.00
    11615.12    38164.00    01823    34263.00    43230.00
    11620.92    36067.00    01773    31297.00    64040.00
    11626.74    33163.00    01708    28976.00    98830.00
    11632.56    30774.00    01653    27172.00   150460.00
    11638.38    29705.00    01629    25781.00   217570.00
    11644.20    25628.00    01526    24725.00   292440.00
    11650.01    25498.00    01524    23955.00   361650.00
    11655.83    24754.00    01507    23458.00   410470.00
    11661.65    26990.00    01568    23286.00   429000.00
    11667.49    28549.00    01607    23622.00   416110.00
    11673.32    28157.00    01603    24910.00   378870.00
    11679.16    29952.00    01647    28100.00   328360.00
    11685.01    39191.00    01866    34995.00   274810.00
    11690.84    50204.00    02104    48469.00   225410.00
    11696.67    78322.00    02600    72427.00   183150.00
    11702.52   117367.00    03170   110842.00   148590.00
    11708.37   170911.00    03820   165350.00   121030.00
    11714.24   231105.00    04432   232999.00    99240.00
    11720.10   296130.00    05036   304378.00    82140.00
    11725.95   352219.00    05502   365699.00    68760.00
    11731.82   378557.00    05699   404160.00    58250.00
    11737.68   391196.00    05816   412514.00    50010.00
    11743.55   373274.00    05673   392324.00    43550.00
    11749.43   335117.00    05380   351769.00    38480.00
    11755.31   282372.00    04943   301583.00    34510.00
    11761.19   247010.00    04629   250827.00    31400.00
    11767.07   195844.00    04129   205071.00    28960.00
    11772.95   156429.00    03699   166486.00    27050.00
    11778.83   130938.00    03394   135281.00    25550.00
    11784.71   109891.00    03118   110494.00    24370.00
    11790.61    86979.00    02780    90940.00    23450.00
    11796.50    73723.00    02577    75608.00    22720.00
    11802.40    60118.00    02334    63602.00    22150.00
    11808.31    48594.00    02113    54179.00    21710.00
    11814.22    46011.00    02063    46805.00    21350.00
    11820.13    39812.00    01931    41035.00    21080.00
    11826.04    33548.00    01787    36519.00    20860.00
    11831.95    33680.00    01793    32983.00    20690.00
    11837.86    31278.00    01736    30214.00    20550.00
    11843.77    29752.00    01699    28045.00    20450.00
    11849.70    25965.00    01597    26342.00    20360.00
    11855.63    24017.00    01549    25008.00    20300.00
    11861.55    23200.00    01524    23962.00    20250.00
    11867.48    21549.00    01481    23142.00    20200.00
    11873.41    21266.00    01471    22498.00    20170.00
    11879.35    20803.00    01459    21991.00    19950.00
    11885.29    22537.00    01513    21594.00    19950.00
    11891.23    21856.00    01495    21281.00    19950.00
    11897.17    21498.00    01487    21035.00    19960.00
    11903.13    21462.00    01484    20841.00    19960.00
    11909.09    19641.00    01434    20689.00    19970.00
    11915.03    20922.00    01476    20568.00    19970.00
    11920.98    20608.00    01465    20473.00    19970.00
    11926.96    20958.00    01478    20398.00    19980.00
    11932.91    19645.00    01443    20338.00    19980.00
    11938.87    20680.00    01474    20291.00    19980.00
    11944.84    20342.00    01465    20253.00    19990.00
    11950.81    21389.00    01500    19991.00    20010.00
    11956.80    20995.00    01486    19995.00    20020.00
    11962.79    19165.00    01435    19999.00    20020.00
    11968.76    19452.00    01446    20002.00    20030.00
    11974.75    20016.00    01463    20006.00    20030.00
    11980.74    18263.00    01413    20009.00    20040.00
    11986.73    19445.00    01449    20013.00    20040.00
    11992.71    20044.00    01474    20017.00    20050.00
    11998.70    20032.00    01472    20020.00    20060.00
    12004.70    20193.00    01479    20024.00    20070.00
    12010.71    19762.00    01468    20027.00    20080.00
    12016.71    19927.00    01475    20031.00    20090.00
    12022.73    21236.00    01514    20034.00    20110.00
    12028.75    20909.00    01510    20062.00    20140.00
    12034.75    20990.00    01515    20067.00    20190.00
    12040.77    19039.00    01452    20073.00    20300.00
    12046.80    20408.00    01498    20079.00    20540.00
    12052.82    22423.00    01566    20085.00    21220.00
    12058.84    20521.00    01506    20092.00    22220.00
    12064.87    18343.00    01438    20099.00    24070.00
    12070.90    19600.00    01481    20106.00    27160.00
    12076.94    19839.00    01491    20115.00    31810.00
    12082.97    22030.00    01562    20124.00    37940.00
    12089.02    19144.00    01470    20135.00    44910.00
    12095.07    20030.00    01504    20149.00    51500.00
    12101.12    20792.00    01527    20168.00    56310.00
    12107.16    19746.00    01499    20198.00    58340.00
    12113.21    19035.00    01475    20253.00    57400.00
    12119.28    20084.00    01511    20361.00    54110.00
    12125.34    21790.00    01567    20789.00    49540.00
    12131.41    22212.00    01582    21279.00    44730.00
    12137.47    25748.00    01689    22251.00    40530.00
    12143.53    26434.00    01711    24057.00    37550.00
    12149.60    29193.00    01791    27135.00    36490.00
    12155.68    32082.00    01866    31865.00    38580.00
    12161.76    40186.00    02075    38275.00    45970.00
    12167.84    45391.00    02192    45809.00    62000.00
    12173.92    49490.00    02291    53269.00    90750.00
    12180.00    52068.00    02343    59142.00   135400.00
    12186.09    55646.00    02421    62186.00   195860.00
    12192.18    52194.00    02353    61945.00   265930.00
    12198.28    46912.00    02242    58905.00   333580.00
    12204.37    48931.00    02289    54146.00   384390.00
    12210.48    49029.00    02289    48857.00   407380.00
    12216.59    45020.00    02209    44052.00   399550.00
    12222.70    43187.00    02165    40517.00   366530.00
    12228.81    39514.00    02086    39067.00   318770.00
    12234.92    40674.00    02112    40977.00   266800.00
    12241.05    46725.00    02254    48427.00   217930.00
    12247.16    58648.00    02516    64585.00   176100.00
    12253.27    91238.00    03102    93143.00   142000.00
    12259.41   137979.00    03788   136917.00   114870.00
    12265.55   202293.00    04590   194823.00    93680.00
    12271.68   271278.00    05317   260185.00    77250.00
    12277.80   341525.00    05973   321576.00    64500.00
    12283.94   367649.00    06191   365934.00    54600.00
    12290.10   381647.00    06316   383737.00    46910.00
    12296.24   373708.00    06273   373261.00    40960.00
    12302.38   349702.00    06061   340450.00    36360.00
    12308.54   297671.00    05599   294949.00    32780.00
    12314.69   248969.00    05129   246346.00    30000.00
    12320.85   200661.00    04615   201205.00    27850.00
    12327.00   161308.00    04150   162674.00    26160.00
    12333.16   133750.00    03791   131367.00    24870.00
    12339.33   107090.00    03399   106557.00    23870.00
    12345.50    89846.00    03135    87199.00    23090.00
    12351.67    71997.00    02817    72171.00    22480.00
    12357.86    61715.00    02623    60503.00    22010.00
    12364.03    51920.00    02428    51496.00    21640.00
    12370.20    46405.00    02303    44520.00    21360.00
    12376.39    44521.00    02263    39106.00    21140.00
    12382.58    38251.00    02114    34914.00    20960.00
    12388.78    35114.00    02032    31660.00    20830.00
    12394.98    32708.00    01977    29142.00    20720.00
    12401.17    32569.00    01976    27196.00    20640.00
    12407.37    30979.00    01930    25659.00    20570.00
    12413.58    28956.00    01877    24487.00    20520.00
    12419.79    25496.00    01783    23580.00    20480.00
    12425.99    24976.00    01765    22876.00    20450.00
    12432.21    21530.00    01660    22328.00    20230.00
    12438.42    23725.00    01732    21902.00    20240.00
    12444.64    23371.00    01723    21570.00    20240.00
    12450.86    24245.00    01753    21312.00    20240.00
    12457.09    21877.00    01677    21110.00    20240.00
    12463.32    22036.00    01689    20952.00    20250.00
    12469.56    19137.00    01591    20829.00    20250.00
    12475.79    19102.00    01597    20732.00    20250.00
    12482.02    23043.00    01724    20656.00    20250.00
    12488.27    19846.00    01623    20596.00    20260.00
    12494.52    21592.00    01683    20549.00    20260.00
    12500.76    20392.00    01646    20511.00    20260.00
    12507.01    22650.00    01722    20481.00    20260.00
    12513.26    20935.00    01669    20264.00    20260.00
    12519.51    20992.00    01673    20266.00    20270.00
    12525.77    21286.00    01681    20268.00    20270.00
    12532.03    20961.00    01677    20270.00    20270.00
    12538.30    21972.00    01709    20273.00    20270.00
    12544.58    19734.00    01637    20275.00    20270.00
    12550.85    19654.00    01637    20277.00    20280.00
    12557.13    19038.00    01618    20279.00    20280.00
    12563.41    20410.00    01667    20281.00    20280.00
    12569.69    20600.00    01676    20283.00    20280.00
    12575.97    21673.00    01714    20285.00    20280.00
    12582.25    20493.00    01677    20287.00    20290.00
    12588.54    23316.00    01768    20289.00    20290.00
    12594.83    19653.00    01654    20291.00    20290.00
    12601.13    19302.00    01640    20293.00    20290.00
    12607.44    19403.00    01646    20295.00    20290.00
    12613.75    20735.00    01694    20297.00    20300.00
    12620.05    23171.00    01776    20299.00    20300.00
    12626.36    22263.00    01750    20300.00    20300.00
    12632.67    21738.00    01735    20302.00    20300.00
    12638.98    20955.00    01711    20304.00    20300.00
    12645.31    19900.00    01674    20306.00    20310.00
    12651.63    20623.00    01705    20308.00    20310.00
    12657.96    21842.00    01744    20309.00    20310.00
    12664.28    21352.00    01735    20311.00    20310.00
    12670.60    20339.00    01699    20313.00    20310.00
    12676.94    18309.00    01630    20315.00    20310.00
    12683.28    21048.00    01728    20316.00    20320.00
    12689.62    22574.00    01781    20318.00    20320.00
    12695.98    21575.00    01746    20320.00    20320.00
    12702.33    19312.00    01676    20321.00    20320.00
    12708.67    19702.00    01692    20323.00    20320.00
    12715.03    20328.00    01712    20325.00    20320.00
    12721.38    20984.00    01741    20326.00    20330.00
    12727.74    20681.00    01729    20328.00    20330.00
    12734.11    20488.00    01725    20329.00    20330.00
    12740.48    23808.00    01837    20331.00    20330.00
    12746.85    20858.00    01742    20332.00    20330.00
    12753.22    20314.00    01726    20334.00    20330.00
    12759.59    18506.00    01665    20335.00    20340.00
    12765.98    19925.00    01713    20337.00    20340.00
    12772.36    21746.00    01782    20338.00    20340.00
    12778.75    21755.00    01781    20340.00    20340.00
    12785.15    19517.00    01707    20341.00    20340.00
    12791.53    17392.00    01636    20342.00    20340.00
    12797.92    20165.00    01734    20344.00    20340.00
    12804.32    19773.00    01723    20345.00    20350.00
    12810.72    19244.00    01707    20346.00    20350.00
    12817.12    23084.00    01840    20348.00    20350.00
    12823.54    20870.00    01764    20349.00    20350.00
    12829.96    20544.00    01759    20350.00    20350.00
    12836.37    20178.00    01745    20352.00    20350.00
    12842.79    20550.00    01764    20353.00    20350.00
    12849.20    19285.00    01718    20354.00    20350.00
    12855.64    19944.00    01744    20355.00    20360.00
    12862.07    18988.00    01712    20357.00    20360.00
    12868.50    22912.00    01850    20358.00    20690.00
    12874.93    23243.00    01863    20359.00    20720.00
    12881.36    22456.00    01840    20360.00    20750.00
    12887.81    21632.00    01810    20361.00    20780.00
    12894.26    20773.00    01787    20362.00    20820.00
    12900.70    20307.00    01769    20363.00    20860.00
    12907.15    19392.00    01743    20364.00    20910.00
    12913.60    21072.00    01801    20365.00    20970.00
    12920.06    21055.00    01802    20366.00    21040.00
    12926.52    22698.00    01861    20368.00    21130.00
    12932.98    22938.00    01871    20369.00    21230.00
    12939.45    24185.00    01915    20369.00    21380.00
    12945.91    23586.00    01898    20370.00    21600.00
    12952.39    22077.00    01845    20752.00    21970.00
    12958.86    23898.00    01913    20782.00    22680.00
    12965.34    26050.00    01980    20816.00    24150.00
    12971.83    23288.00    01893    20854.00    27330.00
    12978.31    20573.00    01807    20897.00    34120.00
    12984.79    21160.00    01825    20945.00    48060.00
    12991.28    19865.00    01782    21001.00    74900.00
    12997.79    22810.00    01882    21066.00   122280.00
    13004.30    22194.00    01868    21141.00   197210.00
    13010.79    23700.00    01921    21232.00   301600.00
    13017.30    23842.00    01924    21344.00   428210.00
    13023.81    21363.00    01847    21491.00   557450.00
    13030.32    20783.00    01824    21701.00   662620.00
    13036.84    21861.00    01864    22035.00   720240.00
    13043.36    23078.00    01908    22638.00   719730.00
    13049.89    25997.00    02007    23839.00   667730.00
    13056.41    24816.00    01971    26370.00   582520.00
    13062.93    27335.00    02054    31758.00   484920.00
    13069.46    36717.00    02334    42909.00   391020.00
    13076.00    53526.00    02760    64738.00   309440.00
    13082.53    94799.00    03614   104035.00   243050.00
    13089.07   159428.00    04636   167981.00   190920.00
    13095.63   264595.00    05952   260746.00   150620.00
    13102.17   385872.00    07203   377812.00   119860.00
    13108.70   510687.00    08281   504214.00    96380.00
    13115.26   623663.00    09169   616266.00    78440.00
    13121.83   667565.00    09479   689011.00    64740.00
    13128.40   677244.00    09579   707285.00    54310.00
    13134.95   644308.00    09351   672315.00    46370.00
    13141.52   581770.00    08868   598496.00    40310.00
    13148.09   483987.00    08110   505885.00    35680.00
    13154.66   405341.00    07410   412053.00    32150.00
    13161.25   321379.00    06607   327824.00    29460.00
    13167.83   252424.00    05868   257929.00    27400.00
    13174.41   203261.00    05280   202449.00    25820.00
    13181.00   157094.00    04661   159452.00    24620.00
    13187.58   126143.00    04196   126513.00    23700.00
    13194.17    93313.00    03637   101381.00    22990.00
    13200.77    81498.00    03408    82197.00    22450.00
    13207.38    68247.00    03141    67570.00    22030.00
    13213.98    59966.00    02969    56462.00    21710.00
    13220.58    47069.00    02657    48006.00    21460.00
    13227.20    44255.00    02587    41552.00    21260.00
    13233.82    41888.00    02528    36635.00    21110.00
    13240.43    36096.00    02371    32890.00    21000.00
    13247.05    32791.00    02278    30033.00    20900.00
    13253.66    30668.00    02216    27853.00    20830.00
    13260.29    30999.00    02224    26184.00    20770.00
    13266.92    26682.00    02096    24909.00    20400.00
    13273.55    24571.00    02024    23933.00    20400.00
    13280.20    26389.00    02086    23183.00    20400.00
    13286.84    26198.00    02083    22607.00    20400.00
    13293.49    23491.00    01994    22164.00    20400.00
    13300.14    23036.00    01981    21822.00    20400.00
    13306.78    23424.00    01997    21558.00    20400.00
    13313.43    25740.00    02077    21352.00    20400.00
    13320.09    21072.00    01915    21192.00    20400.00
    13326.75    23488.00    02006    21066.00    20400.00
    13333.41    23555.00    02006    20967.00    20400.00
    13340.09    23118.00    01993    20888.00    20400.00
    13346.75    23959.00    02029    20825.00    20400.00
    13353.41    22549.00    01978    20775.00    20400.00
    13360.09    22055.00    01963    20402.00    20400.00
    13366.78    17841.00    01807    20402.00    20400.00
    13373.47    21149.00    01936    20402.00    20400.00
    13380.15    23261.00    02013    20402.00    20400.00
    13386.84    24894.00    02066    20402.00    20400.00
    13393.53    23274.00    02018    20402.00    20400.00
    13400.23    24429.00    02055    20402.00    20400.00
    13406.93    25601.00    02097    20402.00    20400.00
    13413.64    21877.00    01971    20402.00    20400.00
    13420.35    25406.00    02096    20402.00    20400.00
    13427.05    24689.00    02074    20402.00    20400.00
    13433.76    21880.00    01979    20402.00    20400.00
    13440.48    24376.00    02064    20402.00    20400.00
    13447.21    25039.00    02094    20402.00    20400.00
    13453.93    23777.00    02048    20402.00    20400.00
    13460.65    24110.00    02067    20402.00    20400.00
    13467.37    23751.00    02052    20402.00    20400.00
    13474.11    19512.00    01902    20402.00    20400.00
    13480.85    21723.00    01985    20402.00    20400.00
    13487.59    23814.00    02062    20402.00    20400.00
    13494.33    21013.00    01965    20402.00    20400.00
    13501.08    21763.00    01990    20402.00    20400.00
    13507.83    19075.00    01898    20402.00    20400.00
    13514.59    15699.00    01764    20402.00    20400.00
    13521.35    20358.00    01946    20402.00    20400.00
    13528.11    19847.00    01934    20402.00    20400.00
    13534.86    19105.00    01904    20402.00    20400.00
    13541.63    20207.00    01948    20402.00    20400.00
    13548.40    20604.00    01965    20402.00    20400.00
    13555.18    22237.00    02022    20402.00    20400.00
    13561.96    19444.00    01927    20402.00    20400.00
    13568.73    20234.00    01959    20401.00    20400.00
    13575.52    19093.00    01914    20401.00    20400.00
    13582.32    18541.00    01895    20401.00    20400.00
    13589.10    19958.00    01956    20401.00    20400.00
    13595.88    19372.00    01932    20401.00    20400.00
    13602.68    21115.00    02000    20401.00    20400.00
    13609.50    21593.00    02015    20401.00    20400.00
    13616.31    17772.00    01878    20401.00    20400.00
    13623.11    18652.00    01915    20401.00    20400.00
    13629.93    18682.00    01914    20400.00    20400.00
    13636.74    19123.00    01938    20400.00    20400.00
    13643.55    19129.00    01937    20400.00    20400.00
    13650.38    19125.00    01939    20400.00    20400.00
    13657.21    16674.00    01846    20400.00    20400.00
    13664.04    19510.00    01959    20400.00    20400.00
    13670.87    21382.00    02031    20400.00    20400.00
    13677.70    20183.00    01990    20400.00    20400.00
    13684.53    21474.00    02040    20400.00    20400.00
    13691.38    19779.00    01975    20399.00    20400.00
    13698.22    20463.00    02008    20399.00    20400.00
    13705.07    20267.00    01999    20399.00    20400.00
    13711.93    21077.00    02032    20399.00    20400.00
    13718.79    20683.00    02020    20399.00    20400.00
    13725.65    19985.00    01997    20399.00    20400.00
    13732.51    21573.00    02059    20399.00    20400.00
    13739.37    16926.00    01883    20399.00    20400.00
    13746.25    14628.00    01787    20399.00    20400.00
    13753.12    18598.00    01955    20398.00    20400.00
    13760.00    14650.00    01793    20398.00    20400.00
    13766.87    18753.00    01966    20398.00    20400.00
    13773.75    18888.00    01970    20398.00    20400.00
    13780.64    18939.00    01975    20398.00    20400.00
    13787.53    18619.00    01965    20398.00    20400.00
    13794.42    20189.00    02029    20398.00    20400.00
    13801.31    20476.00    02042    20398.00    20400.00
    13808.22    19718.00    02012    20398.00    20400.00
    13815.13    18941.00    01989    20398.00    20400.00
    13822.03    15963.00    01869    20398.00    20400.00
    13828.95    17093.00    01917    20398.00    20400.00
    13835.86    20629.00    02063    20398.00    20400.00
    13842.77    16605.00    01903    20397.00    20400.00
    13849.69    16335.00    01895    20397.00    20400.00
    13856.62    21315.00    02088    20397.00    20400.00
    13863.56    19188.00    02015    20397.00    20400.00
    13870.48    21549.00    02108    20397.00    20400.00
    13877.42    18130.00    01975    20397.00    20400.00
    13884.36    18463.00    01996    20397.00    20400.00
    13891.29    20179.00    02061    20397.00    20400.00
    13898.25    19413.00    02034    20397.00    20400.00
    13905.20    20903.00    02094    20397.00    20400.00
    13912.15    19476.00    02043    20397.00    20400.00
    13919.10    18238.00    01997    20398.00    20400.00
    13926.06    22231.00    02154    20398.00    20400.00
    13933.02    21118.00    02111    20398.00    20400.00
    13939.99    20010.00    02076    20398.00    20400.00
    13946.96    19496.00    02055    20398.00    20400.00
    13953.94    19101.00    02043    20398.00    20400.00
    13960.92    20214.00    02089    20398.00    20400.00
    13967.91    20581.00    02106    20398.00    20400.00
    13974.89    16940.00    01965    20398.00    20400.00
    13981.87    17387.00    01987    20398.00    20400.00
    13988.86    18704.00    02043    20399.00    20400.00
    13995.85    19023.00    02054    20399.00    20400.00
    14002.85    18981.00    02060    20399.00    20400.00
    14009.85    19928.00    02096    20399.00    20400.00
    14016.86    21967.00    02177    20399.00    20400.00
    14023.88    19561.00    02088    20400.00    20400.00
    14030.89    19890.00    02105    20400.00    20400.00
    14037.91    18457.00    02052    20400.00    20400.00
    14044.92    20890.00    02150    20400.00    20400.00
    14051.93    20646.00    02144    20401.00    20400.00
    14058.96    20504.00    02137    20401.00    20400.00
    14065.99    21619.00    02188    20401.00    20400.00
    14073.02    22692.00    02227    20401.00    20400.00
    14080.06    19223.00    02097    20402.00    20400.00
    14087.11    20681.00    02158    20402.00    20400.00
    14094.15    18497.00    02075    20403.00    20400.00
    14101.19    19848.00    02132    20403.00    20400.00
    14108.24    18901.00    02098    20403.00    20400.00
    14115.30    18253.00    02071    20404.00    20400.00
    14122.36    22198.00    02232    20404.00    20400.00
    14129.42    21203.00    02193    20405.00    20400.00
    14136.48    22250.00    02241    20405.00    20410.00
    14143.54    21511.00    02212    20406.00    20410.00
    14150.61    20587.00    02180    20406.00    20410.00
    14157.69    19557.00    02143    20407.00    20410.00
    14164.76    18712.00    02112    20407.00    20410.00
    14171.85    19958.00    02161    20408.00    20410.00
    14178.94    19082.00    02134    20408.00    20410.00
    14186.03    17823.00    02082    20409.00    20410.00
    14193.12    19663.00    02164    20410.00    20410.00
    14200.21    21751.00    02244    20410.00    20410.00
    14207.32    18966.00    02139    20411.00    20410.00
    14214.42    17264.00    02072    20412.00    20410.00
    14221.53    20136.00    02192    20413.00    20410.00
    14228.63    18774.00    02141    20413.00    20410.00
    14235.75    21134.00    02233    20414.00    20410.00
    14242.87    19067.00    02160    20415.00    20410.00
    14249.99    19477.00    02175    20416.00    20420.00
    14257.12    19081.00    02167    20417.00    20420.00
    14264.24    16933.00    02078    20417.00    20420.00
    14271.37    19833.00    02200    20418.00    20420.00
    14278.51    21616.00    02273    20419.00    20420.00
    14285.64    20774.00    02244    20420.00    20420.00
    14292.80    23428.00    02344    20421.00    20420.00
    14299.95    20946.00    02258    20422.00    20420.00
    14307.10    20983.00    02258    20423.00    20420.00
    14314.25    16417.00    02079    20424.00    20420.00
    14321.40    17940.00    02142    20425.00    20430.00
    14328.57    18392.00    02164    20426.00    20430.00
    14335.74    20283.00    02244    20428.00    20430.00
    14342.90    20347.00    02251    20429.00    20430.00
    14350.07    19535.00    02221    20430.00    20430.00
    14357.25    18911.00    02195    20431.00    20430.00
    14364.43    18525.00    02187    20432.00    20430.00
    14371.61    20544.00    02267    20434.00    20430.00
    14378.80    16860.00    02124    20435.00    20430.00
    14385.98    21485.00    02312    20436.00    20440.00
    14393.17    18360.00    02190    20438.00    20440.00
    14400.37    20454.00    02278    20439.00    20440.00
    14407.57    21501.00    02323    20440.00    20440.00
    14414.77    21227.00    02316    20442.00    20440.00
    14421.98    17596.00    02167    20443.00    20440.00
    14429.19    18544.00    02215    20445.00    20440.00
    14436.40    20795.00    02304    20446.00    20450.00
    14443.63    19788.00    02268    20448.00    20450.00
    14450.86    17563.00    02179    20450.00    20450.00
    14458.07    17173.00    02171    20451.00    20450.00
    14465.30    19432.00    02259    20453.00    20450.00
    14472.54    19173.00    02256    20455.00    20450.00
    14479.77    18788.00    02244    20457.00    20460.00
    14487.02    23954.00    02447    20458.00    20460.00
    14494.26    22882.00    02414    20460.00    20460.00
    14501.50    15294.00    02100    20462.00    20460.00
    14508.76    17516.00    02200    20464.00    20460.00
    14516.02    19495.00    02285    20466.00    20470.00
    14523.28    21377.00    02364    20468.00    20470.00
    14530.54    20651.00    02339    20470.00    20470.00
    14537.79    21579.00    02379    20472.00    20470.00
    14545.05    20125.00    02324    20474.00    20470.00
    14552.33    18222.00    02245    20476.00    20480.00
    14559.62    19757.00    02312    20478.00    20480.00
    14566.89    22679.00    02437    20480.00    20480.00
    14574.16    18806.00    02279    20483.00    20480.00
    14581.45    22724.00    02440    20485.00    20480.00
    14588.74    21491.00    02395    20487.00    20490.00
    14596.05    20238.00    02344    20490.00    20490.00
    14603.35    21488.00    02402    20492.00    20490.00
    14610.64    19340.00    02318    20494.00    20490.00
    14617.94    21158.00    02391    20497.00    20500.00
    14625.26    20791.00    02379    20499.00    20500.00
    14632.58    17221.00    02234    20502.00    20500.00
    14639.89    21694.00    02428    20505.00    20500.00
    14647.21    21116.00    02398    20507.00    20510.00
    14654.54    18784.00    02311    20510.00    20510.00
    14661.86    19797.00    02356    20513.00    20510.00
    14669.18    18184.00    02292    20515.00    20520.00
    14676.52    20181.00    02374    20518.00    20520.00
    14683.87    21815.00    02443    20521.00    20520.00
    14691.20    18476.00    02314    20524.00    20520.00
    14698.54    22013.00    02458    20527.00    20530.00
    14705.89    16297.00    02222    20530.00    20530.00
    14713.25    19275.00    02348    20533.00    20530.00
    14720.62    25017.00    02585    20536.00    20540.00
    14727.97    21863.00    02465    20539.00    20540.00
    14735.34    21618.00    02454    20542.00    20540.00
    14742.70    20762.00    02428    20545.00    20550.00
    14750.07    21459.00    02454    20549.00    20550.00
    14757.45    20470.00    02418    20552.00    20550.00
    14764.83    20729.00    02432    20555.00    20560.00
    14772.21    20075.00    02408    20559.00    20560.00
    14779.59    18922.00    02364    20562.00    20560.00
    14786.99    17746.00    02312    20566.00    20570.00
    14794.38    20250.00    02426    20569.00    20570.00
    14801.78    24707.00    02601    20573.00    20570.00
    14809.18    19514.00    02402    20577.00    20580.00
    14816.57    19133.00    02385    20580.00    20580.00
    14823.99    18729.00    02371    20584.00    20580.00
    14831.40    17266.00    02311    20588.00    20590.00
    14838.81    22098.00    02516    20592.00    20590.00
    14846.24    22389.00    02526    20596.00    20600.00
    14853.66    22122.00    02524    20599.00    20600.00
    14861.09    24446.00    02614    20603.00    20600.00
    14868.52    18637.00    02387    20608.00    20610.00
    14875.94    17734.00    02347    20612.00    20610.00
    14883.39    19896.00    02442    20616.00    20620.00
    14890.83    22305.00    02544    20620.00    20620.00
    14898.27    22918.00    02572    20624.00    20620.00
    14905.73    20051.00    02454    20629.00    20630.00
    14913.19    20310.00    02474    20633.00    20630.00
    14920.63    21082.00    02509    20637.00    20640.00
    14928.09    23492.00    02604    20642.00    20640.00
    14935.56    24270.00    02638    20646.00    20650.00
    14943.03    21576.00    02535    20651.00    20650.00
    14950.50    20734.00    02504    20656.00    20660.00
    14957.98    22177.00    02566    20660.00    20660.00
    14965.45    17603.00    02378    20665.00    20660.00
    14972.94    16841.00    02344    20670.00    20670.00
    14980.43    21638.00    02555    20675.00    20670.00
    14987.92    20780.00    02519    20680.00    20680.00
    14995.40    19590.00    02478    20684.00    20680.00
    15002.89    22382.00    02592    20690.00    20690.00
    15010.40    24579.00    02682    20695.00    20690.00
    15017.90    20757.00    02532    20700.00    20700.00
    15025.42    21540.00    02563    20705.00    20700.00
    15032.94    20015.00    02509    20710.00    20710.00
    15040.46    22771.00    02621    20716.00    20720.00
    15047.97    23665.00    02666    20721.00    20720.00
    15055.49    21292.00    02569    20726.00    20730.00
    15063.03    19768.00    02509    20732.00    20730.00
    15070.56    20132.00    02528    20737.00    20740.00
    15078.10    20115.00    02531    20743.00    20740.00
    15085.63    18842.00    02481    20749.00    20750.00
    15093.16    17816.00    02440    20754.00    20750.00
    15100.71    18263.00    02459    20760.00    20760.00
    15108.26    21596.00    02609    20766.00    20770.00
    15115.81    20541.00    02563    20772.00    20770.00
    15123.38    21730.00    02617    20778.00    20780.00
    15130.94    19105.00    02510    20784.00    20780.00
    15138.51    19798.00    02544    20790.00    20790.00
    15146.07    18407.00    02488    20796.00    20800.00
    15153.65    20765.00    02587    20802.00    20800.00
    15161.23    22998.00    02688    20809.00    20810.00
    15168.81    19507.00    02542    20815.00    20810.00
    15176.39    18290.00    02498    20821.00    20820.00
    15183.97    18830.00    02521    20828.00    20830.00
    15191.57    22552.00    02681    20834.00    20830.00
    15199.16    20183.00    02587    20841.00    20840.00
    15206.76    20497.00    02604    20847.00    20850.00
    15214.37    22595.00    02690    20854.00    20850.00
    15221.98    19032.00    02550    20861.00    20860.00
    15229.59    21432.00    02650    20868.00    20870.00
    15237.20    24839.00    02798    20875.00    20870.00
    15244.81    18963.00    02554    20882.00    20880.00
    15252.44    19075.00    02563    20889.00    20890.00
    15260.07    24779.00    02803    20896.00    20900.00
    15267.69    21947.00    02692    20903.00    20900.00
    15275.33    23883.00    02770    20910.00    20910.00
    15282.97    20927.00    02658    20917.00    20920.00
    15290.62    21229.00    02670    20925.00    20920.00
    15298.26    20114.00    02632    20932.00    20930.00
    15305.90    16884.00    02490    20940.00    20940.00
    15313.55    19372.00    02604    20947.00    20950.00
    15321.21    21029.00    02678    20955.00    20950.00
    15328.87    20267.00    02650    20963.00    20960.00
    15336.54    21704.00    02710    20970.00    20970.00
    15344.21    17552.00    02541    20978.00    20980.00
    15351.88    19831.00    02640    20986.00    20990.00
    15359.56    19455.00    02633    20994.00    20990.00
    15367.23    19301.00    02625    21002.00    21000.00
    15374.92    26017.00    02907    21010.00    21010.00
    15382.60    26236.00    02920    21018.00    21020.00
    15390.29    21905.00    02750    21026.00    21030.00
    15397.99    21391.00    02727    21035.00    21030.00
    15405.70    24947.00    02883    21043.00    21040.00
    15413.40    22469.00    02781    21051.00    21050.00
    15421.10    18391.00    02616    21060.00    21060.00
    15428.80    22415.00    02788    21068.00    21070.00
    15436.52    22109.00    02780    21077.00    21080.00
    15444.24    20866.00    02732    21086.00    21090.00
    15451.96    17981.00    02611    21095.00    21090.00
    15459.69    20956.00    02740    21103.00    21100.00
    15467.42    20530.00    02731    21112.00    21110.00
    15475.16    23159.00    02841    21121.00    21120.00
    15482.89    20405.00    02736    21130.00    21130.00
    15490.62    19539.00    02697    21139.00    21140.00
    15498.37    15200.00    02505    21149.00    21150.00
    15506.12    17657.00    02623    21158.00    21160.00
    15513.87    19758.00    02721    21167.00    21170.00
    15521.63    20015.00    02731    21176.00    21180.00
    15529.40    21948.00    02824    21186.00    21190.00
    15537.16    20348.00    02755    21195.00    21200.00
    15544.94    22057.00    02833    21205.00    21210.00
    15552.70    24167.00    02931    21215.00    21210.00
    15560.47    20027.00    02756    21224.00    21220.00
    15568.25    19994.00    02759    21234.00    21230.00
    15576.04    19357.00    02731    21244.00    21240.00
    15583.84    19773.00    02759    21254.00    21250.00
    15591.63    22629.00    02881    21264.00    21260.00
    15599.42    19858.00    02773    21274.00    21270.00
    15607.22    22128.00    02870    21284.00    21280.00
    15615.03    23767.00    02943    21295.00    21290.00
    15622.84    25254.00    03009    21305.00    21300.00
    15630.65    24234.00    02973    21315.00    21320.00
    15638.46    18124.00    02715    21326.00    21330.00
    15646.27    20953.00    02844    21336.00    21340.00
    15654.09    22941.00    02928    21347.00    21350.00
    15661.93    23618.00    02962    21357.00    21360.00
    15669.76    22087.00    02908    21368.00    21370.00
    15677.58    22836.00    02940    21379.00    21380.00
    15685.42    22102.00    02914    21390.00    21390.00
    15693.27    22045.00    02916    21401.00    21400.00
    15701.12    23148.00    02963    21412.00    21410.00
    15708.98    23919.00    03006    21423.00    21420.00
    15716.83    19339.00    02809    21434.00    21430.00
    15724.69    21352.00    02908    21445.00    21440.00
    15732.54    21688.00    02922    21456.00    21460.00
    15740.41    20118.00    02859    21468.00    21470.00
    15748.29    21942.00    02943    21479.00    21480.00
    15756.16    23050.00    02996    21491.00    21490.00
    15764.03    22854.00    02993    21502.00    21500.00
    15771.91    24000.00    03040    21514.00    21510.00
    15779.80    23050.00    03012    21525.00    21530.00
    15787.69    26117.00    03138    21537.00    21540.00
    15795.59    24760.00    03088    21549.00    21550.00
    15803.49    25719.00    03132    21561.00    21560.00
    15811.39    21042.00    02941    21573.00    21570.00
    15819.29    26756.00    03186    21585.00    21580.00
    15827.20    21126.00    02955    21597.00    21600.00
    15835.11    17128.00    02775    21609.00    22050.00
    15843.03    21792.00    02994    21621.00    22100.00
    15850.95    21933.00    03000    21634.00    22150.00
    15858.88    21971.00    03007    21646.00    22210.00
    15866.81    18124.00    02841    21659.00    22270.00
    15874.74    18479.00    02863    21671.00    22340.00
    15882.68    20154.00    02944    21684.00    22420.00
    15890.62    24093.00    03114    21697.00    22510.00
    15898.57    22397.00    03053    21709.00    22620.00
    15906.52    21745.00    03024    21722.00    22740.00
    15914.47    25833.00    03209    21735.00    22900.00
    15922.41    28400.00    03312    21748.00    23110.00
    15930.38    23347.00    03110    21761.00    23420.00
    15938.34    22272.00    03069    22296.00    23940.00
    15946.32    20315.00    02984    22351.00    24930.00
    15954.30    26408.00    03255    22410.00    26960.00
    15962.27    22920.00    03108    22476.00    31330.00
    15970.25    19582.00    02973    22549.00    40720.00
    15978.23    23755.00    03156    22630.00    60110.00
    15986.22    24815.00    03206    22722.00    97720.00
    15994.22    24578.00    03202    22827.00   164370.00
    16002.21    21388.00    03071    22948.00   270360.00
    16010.22    22422.00    03116    23093.00   419330.00
    16018.23    23821.00    03188    23272.00   599750.00
    16026.24    21125.00    03070    23507.00   782750.00
    16034.25    24917.00    03246    23846.00   928320.00
    16042.26    29901.00    03449    24398.00  1001160.00
    16050.28    27628.00    03364    25415.00   986690.00
    16058.30    29038.00    03427    27473.00   896330.00
    16066.33    32240.00    03559    31841.00   759630.00
    16074.37    41687.00    03907    41149.00   609120.00
    16082.41    53513.00    04318    60270.00   469690.00
    16090.45    88459.00    05322    97062.00   353750.00
    16098.50   155493.00    06862   162079.00   263620.00
    16106.56   264652.00    08824   265193.00   196520.00
    16114.61   416266.00    11004   409559.00   147680.00
    16122.67   605686.00    13259   584537.00   112490.00
    16130.72   783405.00    15097   762718.00    87220.00
    16138.78   917349.00    16366   905956.00    69090.00
    16146.85   953896.00    16685   979999.00    56080.00
    16154.93   943188.00    16613   969438.00    46730.00
    16163.00   877425.00    16070   884446.00    40040.00
    16171.07   769618.00    15038   752884.00    35240.00
    16179.16   636861.00    13699   606118.00    31790.00
    16187.26   494880.00    12085   468571.00    29310.00
    16195.36   368678.00    10497   353400.00    27550.00
    16203.45   286932.00    09313   263758.00    26330.00
    16211.55   206628.00    07964   196712.00    25550.00
    16219.66   160006.00    07081   147768.00    25190.00
    16227.78   123078.00    06293   112522.00    25340.00
    16235.89    90014.00    05492    87254.00    26130.00
    16244.01    77573.00    05162    69165.00    27760.00
    16252.13    60874.00    04678    56211.00    30300.00
    16260.24    51820.00    04395    46933.00    33600.00
    16268.37    43751.00    04119    40272.00    37160.00
    16276.52    39500.00    03973    35493.00    40210.00
    16284.65    39420.00    03985    32080.00    41970.00
    16292.78    32175.00    03708    29650.00    42050.00
    16300.93    35229.00    03834    27949.00    40140.00
    16309.09    36351.00    03876    26836.00    37600.00
    16317.25    35451.00    03856    26274.00    34640.00
    16325.40    38455.00    03976    26340.00    31820.00
    16333.56    37063.00    03923    27230.00    29430.00
    16341.74    35090.00    03855    29211.00    27560.00
    16349.90    40032.00    04055    32476.00    26160.00
    16358.06    40411.00    04068    36950.00    25150.00
    16366.26    44474.00    04214    42118.00    24430.00
    16374.45    47171.00    04323    46969.00    23910.00
    16382.63    43590.00    04205    50343.00    23550.00
    16390.82    48563.00    04378    51423.00    23300.00
    16399.01    50189.00    04449    50065.00    23120.00
    16407.21    41213.00    04133    46377.00    23000.00
    16415.41    37441.00    03999    42206.00    22920.00
    16423.62    41411.00    04154    37942.00    22870.00
    16431.83    40224.00    04118    34166.00    22830.00
    16440.05    33780.00    03872    31114.00    22810.00
    16448.28    34196.00    03902    28797.00    22810.00
    16456.50    26155.00    03574    27100.00    22800.00
    16464.74    24277.00    03499    25878.00    22810.00
    16472.96    30203.00    03763    25011.00    23240.00
    16481.18    27324.00    03643    24397.00    23280.00
    16489.44    27275.00    03641    23963.00    23330.00
    16497.69    29094.00    03730    23659.00    23390.00
    16505.93    25884.00    03601    23447.00    23460.00
    16514.18    22182.00    03438    23300.00    23530.00
    16522.44    26621.00    03646    23200.00    23610.00
    16530.69    22170.00    03451    23134.00    23710.00
    16538.96    23638.00    03522    23091.00    23820.00
    16547.23    23874.00    03539    23065.00    23940.00
    16555.50    26842.00    03675    23051.00    24120.00
    16563.78    25056.00    03598    23046.00    24360.00
    16572.07    29286.00    03791    23522.00    24740.00
    16580.35    26536.00    03675    23564.00    25410.00
    16588.65    27036.00    03703    23615.00    26740.00
    16596.95    23907.00    03573    23673.00    29560.00
    16605.25    19796.00    03393    23740.00    35650.00
    16613.55    20227.00    03419    23815.00    48520.00
    16621.85    18468.00    03343    23900.00    74310.00
    16630.15    24056.00    03606    23998.00   122110.00
    16638.47    24558.00    03629    24111.00   202510.00
    16646.80    26096.00    03703    24245.00   322890.00
    16655.13    19618.00    03417    24395.00   479730.00
    16663.46    19329.00    03410    24607.00   653520.00
    16671.79    27152.00    03768    24906.00   810140.00
    16680.12    31225.00    03947    25378.00   912150.00
    16688.45    25865.00    03726    26227.00   935250.00
    16696.80    26154.00    03739    27922.00   879060.00
    16705.14    26145.00    03752    31499.00   765280.00
    16713.49    32217.00    04008    39122.00   625420.00
    16721.85    40648.00    04345    54938.00   487100.00
    16730.21    65296.00    05201    85787.00   367660.00
    16738.57   120364.00    06732   141080.00   273140.00
    16746.95   214265.00    08740   230666.00   202170.00
    16755.32   356922.00    11170   358962.00   150650.00
    16763.70   524284.00    13462   518489.00   113850.00
    16772.09   711323.00    15675   686240.00    87690.00
    16780.47   849702.00    17183   826646.00    69210.00
    16788.85   950782.00    18175   906101.00    56130.00
    16797.25   942807.00    18089   906902.00    46840.00
    16805.66   852921.00    17254   834797.00    40260.00
    16814.05   747038.00    16169   714735.00    35610.00
    16822.46   609284.00    14606   576741.00    32310.00
    16830.88   468034.00    12848   445371.00    29960.00
    16839.29   336181.00    10981   334761.00    28290.00
    16847.69   251888.00    09569   248491.00    27100.00
    16856.13   189949.00    08388   184183.00    26260.00
    16864.57   145303.00    07451   137757.00    25650.00
    16872.99   109629.00    06593   104741.00    25220.00
    16881.43    86986.00    05975    81315.00    24910.00
    16889.87    78029.00    05733    64756.00    24680.00
    16898.30    59366.00    05143    53050.00    24520.00
    16906.76    48604.00    04780    44758.00    24410.00
    16915.21    44070.00    04621    38893.00    24320.00
    16923.66    42420.00    04567    34736.00    24260.00
    16932.13    35889.00    04313    31784.00    24220.00
    16940.60    31593.00    04154    29688.00    24190.00
    16949.07    28168.00    04008    28197.00    23820.00
    16957.55    32720.00    04207    27132.00    23840.00
    16966.04    32150.00    04192    26371.00    23850.00
    16974.52    28017.00    04024    25826.00    23870.00
    16983.00    24186.00    03861    25435.00    23890.00
    16991.49    25499.00    03928    25152.00    23910.00
    16999.99    30671.00    04153    24948.00    23930.00
    17008.48    28135.00    04059    24799.00    23950.00
    17016.98    30790.00    04173    24692.00    23970.00
    17025.50    21210.00    03753    24613.00    23990.00
    17034.01    27147.00    04031    24556.00    24010.00
    17042.53    26968.00    04030    24515.00    24030.00
    17051.04    23015.00    03860    24485.00    24040.00
    17059.57    25038.00    03952    24064.00    24060.00
    17068.10    18092.00    03640    24083.00    24080.00
    17076.63    28285.00    04111    24102.00    24100.00
    17085.17    22444.00    03856    24121.00    24120.00
    17093.72    21542.00    03821    24140.00    24140.00
    17102.26    25305.00    04002    24159.00    24160.00
    17110.81    28314.00    04143    24179.00    24180.00
    17119.37    22053.00    03861    24198.00    24200.00
    17127.93    20277.00    03791    24217.00    24220.00
    17136.49    21710.00    03860    24236.00    24240.00
    17145.06    23206.00    03937    24255.00    24250.00
    17153.64    17628.00    03678    24274.00    24270.00
    17162.21    21947.00    03894    24293.00    24290.00
    17170.79    28654.00    04205    24312.00    24310.00
    17179.38    23352.00    03968    24331.00    24330.00
    17187.97    30397.00    04297    24350.00    24350.00
    17196.56    26057.00    04107    24369.00    24370.00
    17205.17    21567.00    03908    24389.00    24390.00
    17213.78    23980.00    04028    24408.00    24410.00
    17222.38    21877.00    03938    24427.00    24430.00
    17230.99    22894.00    03994    24446.00    24450.00
    17239.59    16893.00    03711    24465.00    24460.00
    17248.21    26428.00    04164    24484.00    24480.00
    17256.85    24213.00    04071    24503.00    24500.00
    17265.47    24224.00    04087    24522.00    24520.00
    17274.10    28135.00    04264    24541.00    24540.00
    17282.73    29630.00    04338    24559.00    24560.00
    17291.38    30282.00    04367    24578.00    24580.00
    17300.04    27996.00    04283    24597.00    24600.00
    17308.67    24008.00    04111    24616.00    24620.00
    17317.32    23636.00    04095    24635.00    24640.00
    17325.99    24054.00    04122    24654.00    24650.00
    17334.66    19103.00    03895    24673.00    24670.00
    17343.33    20048.00    03949    24692.00    24690.00
    17351.99    28438.00    04346    24710.00    24710.00
    17360.66    29671.00    04409    24729.00    24730.00
    17369.34    25157.00    04208    24748.00    24750.00
    17378.04    21755.00    04058    24766.00    24770.00
    17386.72    23355.00    04149    24785.00    24790.00
    17395.41    23342.00    04150    24804.00    24800.00
    17404.11    26090.00    04285    24822.00    24820.00
    17412.82    28328.00    04386    24841.00    24840.00
    17421.53    19637.00    03998    24860.00    24860.00
    17430.23    25260.00    04272    24878.00    24880.00
    17438.94    24510.00    04239    24897.00    24900.00
    17447.67    30895.00    04534    24915.00    24910.00
    17456.40    24500.00    04256    24933.00    24930.00
    17465.13    29931.00    04509    24952.00    24950.00
    17473.86    23327.00    04218    24970.00    24970.00
    17482.59    20387.00    04086    24988.00    24990.00
    17491.33    25957.00    04350    25007.00    25010.00
    17500.07    27300.00    04427    25025.00    25020.00
    17508.82    26977.00    04414    25043.00    25040.00
    17517.58    24759.00    04321    25061.00    25060.00
    17526.34    28194.00    04486    25079.00    25080.00
    17535.10    26325.00    04410    25097.00    25100.00
    17543.87    20914.00    04157    25116.00    25120.00
    17552.65    20870.00    04171    25134.00    25130.00
    17561.42    22759.00    04263    25151.00    25150.00
    17570.21    27705.00    04501    25169.00    25170.00
    17578.98    21246.00    04215    25187.00    25190.00
    17587.77    23465.00    04316    25205.00    25200.00
    17596.58    21905.00    04257    25223.00    25220.00
    17605.37    21416.00    04243    25240.00    25240.00
    17614.17    23464.00    04342    25258.00    25260.00
    17622.98    27732.00    04556    25276.00    25280.00
    17631.79    24658.00    04416    25293.00    25290.00
    17640.61    30977.00    04712    25311.00    25310.00
    17649.43    20565.00    04239    25328.00    25330.00
    17658.25    24783.00    04450    25345.00    25350.00
    17667.08    31028.00    04734    25363.00    25360.00
    17675.92    20330.00    04255    25380.00    25380.00
    17684.75    26274.00    04539    25397.00    25400.00
    17693.59    21813.00    04345    25414.00    25410.00
    17702.43    22798.00    04395    25431.00    25430.00
    17711.28    24732.00    04495    25449.00    25450.00
    17720.14    27961.00    04646    25465.00    25470.00
    17729.01    25119.00    04533    25482.00    25480.00
    17737.88    22366.00    04404    25499.00    25500.00
    17746.74    25722.00    04579    25516.00    25520.00
    17755.61    26223.00    04604    25533.00    25530.00
    17764.49    25134.00    04563    25549.00    25550.00
    17773.37    21731.00    04410    25566.00    25570.00
    17782.25    26523.00    04646    25582.00    25580.00
    17791.15    28900.00    04756    25599.00    25600.00
    17800.05    26105.00    04646    25615.00    25620.00
    17808.95    22893.00    04496    25631.00    25630.00
    17817.86    21060.00    04416    25648.00    25650.00
    17826.77    24579.00    04594    25664.00    25660.00
    17835.68    21911.00    04476    25680.00    25680.00
    17844.60    23934.00    04583    25696.00    25700.00
    17853.51    23652.00    04578    25712.00    25710.00
    17862.44    26179.00    04699    25728.00    25730.00
    17871.38    27724.00    04780    25743.00    25740.00
    17880.30    22128.00    04533    25759.00    25760.00
    17889.23    26906.00    04761    25775.00    25770.00
    17898.19    27948.00    04810    25790.00    25790.00
    17907.15    22160.00    04554    25806.00    25810.00
    17916.09    25134.00    04706    25821.00    25820.00
    17925.05    30887.00    04971    25836.00    25840.00
    17934.01    30542.00    04974    25851.00    25850.00
    17942.97    24180.00    04681    25866.00    25870.00
    17951.94    31721.00    05037    25881.00    25880.00
    17960.91    22622.00    04625    25896.00    25900.00
    17969.90    25985.00    04786    25911.00    25910.00
    17978.89    19429.00    04486    25926.00    25930.00
    17987.88    20260.00    04529    25941.00    25940.00
    17996.88    21855.00    04617    25955.00    25960.00
    18005.88    25403.00    04805    25970.00    25970.00
    18014.86    21596.00    04623    25984.00    25980.00
    18023.88    24330.00    04757    25998.00    26000.00
    18032.90    29610.00    05020    26013.00    26010.00
    18041.91    29933.00    05045    26027.00    26030.00
    18050.93    23984.00    04769    26041.00    26040.00
    18059.96    29283.00    05026    26055.00    26050.00
    18069.00    32539.00    05182    26068.00    26070.00
    18078.03    31521.00    05147    26082.00    26080.00
    18087.07    24207.00    04817    26096.00    26100.00
    18096.10    25721.00    04899    26109.00    26110.00
    18105.15    30976.00    05143    26123.00    26120.00
    18114.20    22970.00    04786    26136.00    26140.00
    18123.25    29492.00    05095    26149.00    26150.00
    18132.32    29508.00    05105    26162.00    26160.00
    18141.38    20759.00    04698    26175.00    26180.00
    18150.46    27235.00    05012    26188.00    26190.00
    18159.54    31654.00    05232    26201.00    26200.00
    18168.62    28726.00    05100    26213.00    26210.00
    18177.71    31489.00    05245    26226.00    26230.00
    18186.79    29198.00    05142    26238.00    26240.00
    18195.88    26200.00    05012    26251.00    26420.00
    18204.98    28840.00    05145    26263.00    26450.00
    18214.08    27369.00    05086    26275.00    26480.00
    18223.19    24931.00    04973    26287.00    26510.00
    18232.30    22848.00    04890    26299.00    26540.00
    18241.41    28309.00    05151    26311.00    26580.00
    18250.54    25307.00    05020    26322.00    26620.00
    18259.66    21744.00    04856    26334.00    26660.00
    18268.79    23360.00    04946    26345.00    26710.00
    18277.93    24365.00    04996    26357.00    26770.00
    18287.07    23397.00    04967    26368.00    26840.00
    18296.22    23190.00    04959    26379.00    26950.00
    18305.36    28912.00    05250    26390.00    27100.00
    18314.50    24136.00    05025    26608.00    27380.00
    18323.66    22669.00    04963    26636.00    27920.00
    18332.83    28533.00    05246    26665.00    29070.00
    18342.00    32206.00    05433    26697.00    31540.00
    18351.18    26661.00    05178    26732.00    36780.00
    18360.35    25498.00    05142    26770.00    47340.00
    18369.52    17116.00    04724    26812.00    67010.00
    18378.71    21887.00    04977    26860.00   100300.00
    18387.90    28610.00    05311    26915.00   150340.00
    18397.09    26520.00    05223    26980.00   215850.00
    18406.29    29997.00    05388    27060.00   288870.00
    18415.49    25966.00    05218    27167.00   354750.00
    18424.70    22351.00    05043    27326.00   397310.00
    18433.91    31080.00    05469    27593.00   405890.00
    18443.13    34900.00    05652    28099.00   380250.00
    18452.35    31330.00    05502    29143.00   330000.00
    18461.59    24352.00    05175    31376.00   268950.00
    18470.82    34676.00    05675    36101.00   209490.00
    18480.05    33829.00    05638    45654.00   159000.00
    18489.29    44533.00    06121    63615.00   119890.00
    18498.52    74937.00    07278    94354.00    91330.00
    18507.77   133788.00    09126   141418.00    71180.00
    18517.04   209145.00    11045   204635.00    57230.00
    18526.30   290103.00    12838   277175.00    47670.00
    18535.56   369576.00    14359   345655.00    41140.00
    18544.83   415019.00    15212   393863.00    36670.00
    18554.09   414578.00    15199   409668.00    33620.00
    18563.37   381119.00    14629   390629.00    31530.00
    18572.65   338885.00    13869   344473.00    30100.00
    18581.93   296538.00    13057   284582.00    29110.00
    18591.23   242320.00    11912   223748.00    28430.00
    18600.52   174154.00    10336   170622.00    27960.00
    18609.82   137004.00    09342   128652.00    27640.00
    18619.13    97450.00    08171    97581.00    27420.00
    18628.44    82877.00    07701    75549.00    27260.00
    18637.75    70974.00    07297    60274.00    27150.00
    18647.08    53141.00    06622    49781.00    27070.00
    18656.40    43154.00    06235    42615.00    27010.00
    18665.73    32652.00    05775    37725.00    26970.00
    18675.07    32625.00    05784    34379.00    26940.00
    18684.41    33575.00    05839    32092.00    26920.00
    18693.75    35123.00    05920    30525.00    26910.00
    18703.09    30588.00    05723    29449.00    26890.00
    18712.43    23538.00    05396    28707.00    26740.00
    18721.79    16850.00    05056    28193.00    26750.00
    18731.16    25493.00    05504    27836.00    26750.00
    18740.53    26243.00    05551    27586.00    26750.00
    18749.91    30279.00    05754    27410.00    26760.00
    18759.28    32093.00    05850    27285.00    26760.00
    18768.65    26106.00    05578    27195.00    26770.00
    18778.04    30750.00    05800    27130.00    26770.00
    18787.42    30324.00    05801    27082.00    26770.00
    18796.81    27823.00    05685    27046.00    26780.00
    18806.21    25529.00    05585    27018.00    26780.00
    18815.62    26942.00    05665    26997.00    26790.00
    18825.02    28642.00    05757    26980.00    26790.00
    18834.44    26270.00    05646    26791.00    26790.00
    18843.85    22049.00    05457    26794.00    26790.00
    18853.27    20049.00    05358    26797.00    26800.00
    18862.70    20898.00    05413    26799.00    26800.00
    18872.14    31507.00    05941    26801.00    26800.00
    18881.57    23377.00    05560    26804.00    26800.00
    18891.00    32405.00    06005    26806.00    26810.00
    18900.45    24506.00    05630    26808.00    26810.00
    18909.91    37462.00    06248    26809.00    26810.00
    18919.36    22360.00    05555    26811.00    26810.00
    18928.81    21811.00    05530    26812.00    26810.00
    18938.28    29534.00    05919    26813.00    26810.00
    18947.75    24800.00    05693    26814.00    26810.00
    18957.23    21571.00    05552    26815.00    26820.00
    18966.71    35937.00    06242    26816.00    26820.00
    18976.19    26208.00    05806    26817.00    26820.00
    18985.67    19929.00    05494    26817.00    26820.00
    18995.16    26780.00    05848    26817.00    26820.00
